 Frequeny Response H(f) for Accuton_S220-6222-8
Freq ; H(f)
  30 ; 17.0066
  80 ; 9.64968
  130 ; 3.3197
  180 ; 1.68017
  230 ; 1.0161
  280 ; 0.681173
  330 ; 0.488553
  380 ; 0.367571
  430 ; 0.286602
  480 ; 0.229746
  530 ; 0.188288
  580 ; 0.157127
  630 ; 0.133113
  680 ; 0.114214
  730 ; 0.0990746
  780 ; 0.0867586
  830 ; 0.0766052
  880 ; 0.0681359
  930 ; 0.0609978
  980 ; 0.0549257
  1030 ; 0.0497174
  1080 ; 0.0452165
  1130 ; 0.0413003
  1180 ; 0.0378719
  1230 ; 0.0348534
  1280 ; 0.0321819
  1330 ; 0.0298063
  1380 ; 0.0276844
  1430 ; 0.0257813
  1480 ; 0.0240679
  1530 ; 0.0225199
  1580 ; 0.0211165
  1630 ; 0.0198404
  1680 ; 0.0186766
  1730 ; 0.0176122
  1780 ; 0.0166363
  1830 ; 0.0157394
  1880 ; 0.0149131
  1930 ; 0.0141502
  1980 ; 0.0134444
  2030 ; 0.0127901
  2080 ; 0.0121824
  2130 ; 0.011617
  2180 ; 0.0110901
  2230 ; 0.0105983
  2280 ; 0.0101385
  2330 ; 0.00970793
  2380 ; 0.00930424
  2430 ; 0.00892522
  2480 ; 0.0085689
  2530 ; 0.0082335
  2580 ; 0.00791742
  2630 ; 0.00761919
  2680 ; 0.0073375
  2730 ; 0.00707115
  2780 ; 0.00681905
  2830 ; 0.00658019
  2880 ; 0.00635367
  2930 ; 0.00613864
  2980 ; 0.00593435
  3030 ; 0.00574009
  3080 ; 0.00555522
  3130 ; 0.00537913
  3180 ; 0.00521129
  3230 ; 0.00505118
  3280 ; 0.00489834
  3330 ; 0.00475234
  3380 ; 0.00461276
  3430 ; 0.00447925
  3480 ; 0.00435145
  3530 ; 0.00422904
